Data from p_35_grat_Al_Subt2__0__15-07-34-975.txt Node

Date: Thu Jan 18 15:07:34 CET 2024
User: vdhooven
Spectrometer: QEP05097
Trigger mode: 4
Integration Time (sec): 5.000000E-2
Scans to average: 2
Electric dark correction enabled: true
Nonlinearity correction enabled: false
Boxcar width: 0
XAxis mode: Wavelengths
Number of Pixels in Spectrum: 1044
>>>>>Begin Spectral Data<<<<<
197.106	-1.06
197.905	-1.56
198.704	-3.56
199.503	-2.06
200.302	196.94
201.101	196.94
201.9	212.44
202.699	186.44
203.498	203.44
204.296	202.94
205.095	195.44
205.894	214.44
206.692	204.44
207.491	175.44
208.289	140.94
209.088	110.44
209.886	100.44
210.684	84.44
211.483	88.94
212.281	73.44
213.079	80.44
213.877	75.44
214.675	79.94
215.473	79.94
216.271	76.44
217.069	72.44
217.866	74.44
218.664	66.94
219.462	73.94
220.259	69.44
221.057	65.94
221.855	64.44
222.652	68.44
223.449	63.44
224.247	64.94
225.044	70.44
225.841	85.44
226.638	110.44
227.436	131.44
228.233	153.94
229.03	144.44
229.827	127.94
230.624	123.94
231.42	123.94
232.217	127.94
233.014	123.44
233.811	123.44
234.607	120.94
235.404	121.94
236.2	113.44
236.997	113.44
237.793	113.94
238.589	112.94
239.386	116.94
240.182	105.44
240.978	115.94
241.774	108.44
242.57	111.44
243.366	116.94
244.162	103.94
244.958	112.94
245.754	111.44
246.55	102.44
247.345	104.94
248.141	103.44
248.937	103.44
249.732	101.94
250.528	96.94
251.323	100.94
252.118	95.94
252.914	103.94
253.709	95.44
254.504	101.94
255.299	98.44
256.094	98.94
256.889	106.44
257.684	100.94
258.479	96.94
259.274	93.94
260.069	94.44
260.864	94.94
261.658	88.44
262.453	94.94
263.247	89.44
264.042	92.94
264.836	94.44
265.631	93.44
266.425	87.44
267.219	94.94
268.013	93.44
268.808	88.94
269.602	82.44
270.396	86.44
271.19	80.44
271.984	77.44
272.777	80.94
273.571	84.94
274.365	82.44
275.159	90.94
275.952	84.94
276.746	78.94
277.539	78.44
278.333	86.44
279.126	84.94
279.919	81.94
280.713	82.44
281.506	74.44
282.299	84.44
283.092	76.94
283.885	79.44
284.678	84.44
285.471	80.44
286.264	84.44
287.057	79.44
287.849	82.94
288.642	76.44
289.434	77.94
290.227	74.94
291.02	76.44
291.812	77.44
292.604	81.44
293.397	76.44
294.189	81.44
294.981	70.94
295.773	81.44
296.565	71.44
297.357	77.94
298.149	71.94
298.941	72.94
299.733	77.94
300.525	72.94
301.316	69.94
302.108	68.44
302.899	69.94
303.691	67.94
304.482	65.44
305.274	64.94
306.065	63.44
306.856	68.44
307.648	68.94
308.439	65.44
309.23	67.44
310.021	65.94
310.812	68.44
311.603	65.44
312.394	62.94
313.184	65.44
313.975	62.94
314.766	62.44
315.556	61.94
316.347	64.44
317.137	61.94
317.928	60.94
318.718	57.44
319.508	61.44
320.299	63.44
321.089	58.94
321.879	62.94
322.669	60.44
323.459	59.94
324.249	55.94
325.039	54.94
325.828	55.94
326.618	53.44
327.408	56.44
328.197	53.94
328.987	60.94
329.776	55.94
330.566	60.44
331.355	63.94
332.145	52.94
332.934	67.94
333.723	50.94
334.512	57.44
335.301	56.44
336.09	49.44
336.879	56.94
337.668	54.94
338.457	52.44
339.245	50.44
340.034	56.94
340.823	52.44
341.611	50.94
342.4	57.44
343.188	52.44
343.976	57.94
344.765	50.44
345.553	50.44
346.341	52.94
347.129	57.44
347.917	49.94
348.705	47.94
349.493	50.94
350.281	45.94
351.069	46.94
351.856	48.44
352.644	49.44
353.432	55.44
354.219	48.94
355.007	50.94
355.794	57.94
356.581	54.44
357.369	47.44
358.156	49.44
358.943	47.44
359.73	47.44
360.517	47.44
361.304	49.44
362.091	50.44
362.878	51.44
363.664	46.94
364.451	51.44
365.238	53.94
366.024	59.94
366.811	51.94
367.597	49.94
368.384	60.44
369.17	51.44
369.956	60.44
370.742	51.44
371.528	51.44
372.314	54.94
373.1	61.44
373.886	65.94
374.672	62.94
375.458	68.44
376.244	65.44
377.029	70.44
377.815	75.44
378.6	80.94
379.386	80.44
380.171	85.94
380.956	86.94
381.742	94.44
382.527	100.44
383.312	97.94
384.097	96.94
384.882	112.44
385.667	110.44
386.452	116.94
387.237	123.44
388.021	126.44
388.806	128.44
389.591	137.94
390.375	135.94
391.16	148.44
391.944	155.94
392.728	162.44
393.513	162.44
394.297	178.44
395.081	173.44
395.865	188.94
396.649	187.44
397.433	192.44
398.217	205.94
399.001	213.44
399.784	210.44
400.568	213.94
401.352	226.44
402.135	229.94
402.919	231.94
403.702	239.94
404.485	248.94
405.269	259.94
406.052	255.44
406.835	268.94
407.618	271.94
408.401	273.44
409.184	278.44
409.967	295.44
410.749	290.94
411.532	303.44
412.315	319.44
413.097	321.94
413.88	321.44
414.662	343.94
415.445	333.94
416.227	350.94
417.009	356.94
417.792	378.94
418.574	385.44
419.356	402.94
420.138	423.44
420.92	422.94
421.701	445.44
422.483	465.44
423.265	464.94
424.047	491.44
424.828	508.44
425.61	531.44
426.391	542.94
427.172	563.44
427.954	576.44
428.735	592.94
429.516	611.44
430.297	634.94
431.078	641.44
431.859	669.44
432.64	692.44
433.421	717.44
434.202	729.44
434.982	736.94
435.763	763.94
436.543	798.94
437.324	806.44
438.104	844.94
438.885	877.44
439.665	879.94
440.445	908.94
441.225	950.44
442.005	978.94
442.785	1000.94
443.565	1018.94
444.345	1046.94
445.125	1072.94
445.904	1106.44
446.684	1130.44
447.464	1138.94
448.243	1174.44
449.022	1208.94
449.802	1219.44
450.581	1252.94
451.36	1270.44
452.139	1287.94
452.919	1319.94
453.698	1341.44
454.477	1364.94
455.255	1406.94
456.034	1421.94
456.813	1462.44
457.592	1498.94
458.37	1541.44
459.149	1587.44
459.927	1599.44
460.705	1638.44
461.484	1659.94
462.262	1726.94
463.04	1773.94
463.818	1794.94
464.596	1829.94
465.374	1869.44
466.152	1920.44
466.93	1945.94
467.708	1994.94
468.485	2053.94
469.263	2111.94
470.04	2161.94
470.818	2202.44
471.595	2245.94
472.372	2277.44
473.15	2350.94
473.927	2409.94
474.704	2461.44
475.481	2524.44
476.258	2577.94
477.035	2634.44
477.812	2694.94
478.588	2749.44
479.365	2809.44
480.142	2895.44
480.918	2923.44
481.695	3006.44
482.471	3078.44
483.247	3139.44
484.023	3223.44
484.8	3282.94
485.576	3358.44
486.352	3392.44
487.128	3543.44
487.904	3557.44
488.679	3653.94
489.455	3729.44
490.231	3780.44
491.006	3865.94
491.782	3952.94
492.557	4040.94
493.333	4113.94
494.108	4201.94
494.883	4278.44
495.658	4369.44
496.433	4468.94
497.208	4531.94
497.983	4611.44
498.758	4753.44
499.533	4828.44
500.308	4970.44
501.082	5067.94
501.857	5157.44
502.631	5270.44
503.406	5453.44
504.18	5555.94
504.954	5662.94
505.728	5795.44
506.503	5932.94
507.277	6030.94
508.051	6162.44
508.824	6264.44
509.598	6355.44
510.372	6482.94
511.146	6558.94
511.919	6677.94
512.693	6807.94
513.466	6926.44
514.24	7046.44
515.013	7133.44
515.786	7285.94
516.559	7408.94
517.332	7536.94
518.105	7648.44
518.878	7717.94
519.651	7776.44
520.424	7937.94
521.197	8024.44
521.969	8095.94
522.742	8212.44
523.514	8324.44
524.287	8383.44
525.059	8479.94
525.831	8580.94
526.604	8681.94
527.376	8828.94
528.148	8930.94
528.92	9093.94
529.692	9177.44
530.464	9281.94
531.235	9467.44
532.007	9661.94
532.779	9811.44
533.55	9934.44
534.321	10067.94
535.093	10228.44
535.864	10390.94
536.635	10497.44
537.406	10687.44
538.178	10812.94
538.949	10935.94
539.719	11117.94
540.49	11331.44
541.261	11443.94
542.032	11656.44
542.802	11867.94
543.573	12028.44
544.343	12148.44
545.114	12294.44
545.884	12322.94
546.654	12567.44
547.424	12705.94
548.194	12868.44
548.964	13094.94
549.734	13241.94
550.504	13482.44
551.274	13682.44
552.044	13854.44
552.813	14110.44
553.583	14179.44
554.352	14464.94
555.122	14719.44
555.891	14936.94
556.66	15115.44
557.429	15270.44
558.198	15333.44
558.967	15563.44
559.736	15695.44
560.505	15850.94
561.274	15988.94
562.043	16195.44
562.811	16358.94
563.58	16626.44
564.348	16830.44
565.117	17066.44
565.885	17300.44
566.653	17594.44
567.421	17668.94
568.19	17810.44
568.958	18121.44
569.725	18439.94
570.493	18638.94
571.261	18790.44
572.029	19037.94
572.796	19335.94
573.564	19540.44
574.331	19747.94
575.099	19868.44
575.866	20034.94
576.633	20194.94
577.4	20327.94
578.168	20504.44
578.935	20828.94
579.701	20987.44
580.468	21158.44
581.235	21395.44
582.002	21602.44
582.768	21760.44
583.535	21936.44
584.301	22189.44
585.068	22335.94
585.834	22524.44
586.6	22629.44
587.366	22958.94
588.132	23155.94
588.898	23422.44
589.664	23553.94
590.43	23721.94
591.196	24070.94
591.961	24209.94
592.727	24492.94
593.492	24670.44
594.258	25097.94
595.023	25394.44
595.788	25723.44
596.554	25658.44
597.319	25796.94
598.084	26042.44
598.849	26285.44
599.614	26722.94
600.378	26985.94
601.143	27193.44
601.908	27380.44
602.672	27776.44
603.437	27904.94
604.201	28229.44
604.965	28534.94
605.73	28850.94
606.494	29166.44
607.258	29410.94
608.022	29645.44
608.786	29953.94
609.55	30076.94
610.313	30286.94
611.077	30379.94
611.841	30704.94
612.604	31237.44
613.367	31591.94
614.131	31906.94
614.894	32100.94
615.657	32599.44
616.42	32889.94
617.183	33318.44
617.946	33655.94
618.709	33893.94
619.472	34199.94
620.235	34622.94
620.997	34984.44
621.76	35348.94
622.522	35362.44
623.285	35784.44
624.047	36107.44
624.809	36665.44
625.571	36996.44
626.333	37742.94
627.095	38172.44
627.857	38930.44
628.619	39504.94
629.381	40163.44
630.142	40514.94
630.904	40972.44
631.665	41506.44
632.427	42381.94
633.188	42666.44
633.949	42972.44
634.711	43063.44
635.472	43011.44
636.233	43160.44
636.994	43445.94
637.754	43668.44
638.515	43450.44
639.276	43601.94
640.036	43240.94
640.797	43350.94
641.557	42834.94
642.318	42597.94
643.078	42285.44
643.838	42403.44
644.598	41883.94
645.358	41492.44
646.118	40828.94
646.878	40497.44
647.638	40282.44
648.397	39895.94
649.157	39483.44
649.916	38967.94
650.676	38760.94
651.435	38243.44
652.194	38204.44
652.954	37958.44
653.713	37969.44
654.472	37824.94
655.231	37654.94
655.99	37519.44
656.748	37428.44
657.507	37757.44
658.266	37715.44
659.024	37835.94
659.783	37257.94
660.541	37203.94
661.299	37211.94
662.057	37457.44
662.815	37834.94
663.573	37785.44
664.331	38065.94
665.089	37987.44
665.847	38359.94
666.605	38521.94
667.362	38764.94
668.12	39155.44
668.877	39195.94
669.635	39707.44
670.392	39759.44
671.149	40168.94
671.906	40182.94
672.663	40580.44
673.42	40905.94
674.177	41009.44
674.934	41663.94
675.69	41665.94
676.447	42051.44
677.203	42394.44
677.96	42809.94
678.716	43352.94
679.472	43481.44
680.229	44300.94
680.985	44704.44
681.741	44818.94
682.497	44950.44
683.252	44833.44
684.008	45424.44
684.764	45596.94
685.519	46414.44
686.275	46712.44
687.03	46643.44
687.786	47116.44
688.541	47050.44
689.296	47563.94
690.051	47914.44
690.806	47865.94
691.561	48647.94
692.316	48537.44
693.07	49258.94
693.825	49479.94
694.58	49125.44
695.334	49977.94
696.088	50175.94
696.843	50826.94
697.597	51667.94
698.351	51519.94
699.105	52415.44
699.859	52426.44
700.613	52908.94
701.367	53486.94
702.12	53558.94
702.874	54349.44
703.627	54186.94
704.381	54151.94
705.134	54902.44
705.887	54804.44
706.641	55825.44
707.394	56518.94
708.147	56493.44
708.9	57406.94
709.652	57398.94
710.405	57923.94
711.158	58679.44
711.91	57932.44
712.663	59004.44
713.415	59490.94
714.168	59217.94
714.92	60279.94
715.672	60042.44
716.424	60463.94
717.176	61715.44
717.928	61202.44
718.68	62019.94
719.431	62711.44
720.183	62147.94
720.934	63333.94
721.686	63107.94
722.437	62599.94
723.188	63588.44
723.94	63091.94
724.691	63403.94
725.442	63998.94
726.193	63212.94
726.943	63611.94
727.694	63833.44
728.445	63032.94
729.195	63781.44
729.946	63682.44
730.696	62678.94
731.446	62739.94
732.197	62041.94
732.947	61651.44
733.697	62009.94
734.447	60456.44
735.197	59763.94
735.946	60378.44
736.696	59320.94
737.446	58740.44
738.195	58599.44
738.945	57311.44
739.694	57206.44
740.443	57153.94
741.192	55839.94
741.941	55913.44
742.69	55702.94
743.439	54236.94
744.188	53929.44
744.937	52765.44
745.685	51166.94
746.434	51539.44
747.182	51166.44
747.931	49951.44
748.679	49811.94
749.427	49131.94
750.175	47922.94
750.923	47962.44
751.671	47076.94
752.419	45677.94
753.167	45701.94
753.914	44978.44
754.662	43658.94
755.409	43673.44
756.157	42482.44
756.904	41519.44
757.651	41679.44
758.398	41058.44
759.145	39772.94
759.892	39377.44
760.639	38453.44
761.386	37182.94
762.132	36997.94
762.879	36463.44
763.625	35178.94
764.372	35014.94
765.118	34709.44
765.864	33497.94
766.61	33141.94
767.356	32820.44
768.102	31624.44
768.848	31347.44
769.594	31356.94
770.339	30404.94
771.085	29736.44
771.83	29461.44
772.576	28422.94
773.321	27915.94
774.066	27946.94
774.811	27555.44
775.556	27125.94
776.301	27292.94
777.046	26896.44
777.791	25967.44
778.535	25826.44
779.28	25665.94
780.025	25105.94
780.769	25276.44
781.513	25171.94
782.257	24594.94
783.001	24577.94
783.746	24836.94
784.489	24565.94
785.233	24287.44
785.977	24561.44
786.721	24334.94
787.464	23857.94
788.208	24203.94
788.951	24314.44
789.694	23860.94
790.438	23914.94
791.181	24415.94
791.924	24205.44
792.667	23964.44
793.409	24424.94
794.152	24083.94
794.895	23738.44
795.637	24360.44
796.38	24700.94
797.122	24293.94
797.864	24575.44
798.607	25269.94
799.349	25023.44
800.091	24778.44
800.832	25281.94
801.574	25415.44
802.316	25108.94
803.058	25401.94
803.799	25989.94
804.541	25661.94
805.282	25858.44
806.023	26515.94
806.764	26755.94
807.505	26502.44
808.246	27121.94
808.987	27628.94
809.728	27299.44
810.469	27385.44
811.209	28019.44
811.95	27970.94
812.69	27770.94
813.431	28327.44
814.171	28862.44
814.911	28369.94
815.651	28273.94
816.391	29114.44
817.131	29270.44
817.87	28833.44
818.61	29582.44
819.35	30232.44
820.089	29855.94
820.829	29422.94
821.568	30262.44
822.307	30911.94
823.046	30749.94
823.785	30747.44
824.524	31378.94
825.263	31245.44
826.002	31049.94
826.74	32021.94
827.479	32965.94
828.217	32832.94
828.956	33061.44
829.694	33879.44
830.432	33835.44
831.17	33236.94
831.908	33874.94
832.646	35014.44
833.384	35274.44
834.121	34773.94
834.859	35656.94
835.596	36959.44
836.334	37297.44
837.071	37596.44
837.808	39163.44
838.545	40197.44
839.282	39430.94
840.019	39516.44
840.756	40466.44
841.493	40748.44
842.23	39669.44
842.966	39014.44
843.703	39267.94
844.439	38391.44
845.175	37022.94
845.911	36782.44
846.647	37149.44
847.383	36108.94
848.119	34125.94
848.855	33093.44
849.591	32464.44
850.326	30925.94
851.062	29640.44
851.797	29431.44
852.532	29098.44
853.268	27569.94
854.003	26164.44
854.738	25603.94
855.473	24999.44
856.207	23642.44
856.942	22695.94
857.677	22110.94
858.411	21312.94
859.146	19836.94
859.88	19026.94
860.614	19013.44
861.348	18673.94
862.083	17914.44
862.816	17083.44
863.55	16805.94
864.284	16422.94
865.018	15841.94
865.751	15483.44
866.485	15519.94
867.218	15477.94
867.951	14973.44
868.685	14505.44
869.418	14471.94
870.151	14603.94
870.884	14334.94
871.616	14171.44
872.349	14394.44
873.082	14523.44
873.814	14323.94
874.546	14112.94
875.279	14323.44
876.011	14632.44
876.743	14666.44
877.475	14694.94
878.207	15105.94
878.939	15753.94
879.671	15814.44
880.402	15622.44
881.134	15962.44
881.865	16679.44
882.596	17044.44
883.328	16995.94
884.059	17084.94
884.79	17462.44
885.521	17747.44
886.252	17573.44
886.982	17777.44
887.713	18433.44
888.443	19002.44
889.174	18986.94
889.904	18959.94
890.634	19320.44
891.365	19861.94
892.095	19916.94
892.825	19856.94
893.554	20494.44
894.284	21244.44
895.014	21314.44
895.743	20903.44
896.473	20752.94
897.202	21361.44
897.931	21821.94
898.661	21601.44
899.39	21525.44
900.119	22133.44
900.847	22470.44
901.576	22162.44
902.305	21856.44
903.033	21955.44
903.762	22841.44
904.49	23165.94
905.218	23130.44
905.947	23133.44
906.675	23479.94
907.403	23653.44
908.13	23468.44
908.858	23389.94
909.586	23685.94
910.313	24377.44
911.041	24669.94
911.768	24483.44
912.496	24269.44
913.223	24503.44
913.95	24763.94
914.677	24348.94
915.404	24077.94
916.13	24177.44
916.857	24876.94
917.584	24877.44
918.31	24299.94
919.036	24266.44
919.763	24692.94
920.489	25120.44
921.215	24915.94
921.941	24567.44
922.667	24553.44
923.392	24684.94
924.118	24745.44
924.844	24336.44
925.569	24146.44
926.294	24461.94
927.02	24967.94
927.745	25033.44
928.47	24378.94
929.195	24042.94
929.92	24114.44
930.644	24379.44
931.369	24063.44
932.094	23821.44
932.818	23727.94
933.542	23994.44
934.267	24274.44
934.991	23868.94
935.715	23188.94
936.439	23184.94
937.163	23642.44
937.886	23841.44
938.61	23392.44
939.333	23106.94
940.057	23284.44
940.78	23583.44
941.503	23502.94
942.227	23119.94
942.95	23016.44
943.672	23551.94
944.395	23926.44
945.118	23527.94
945.841	22965.44
946.563	22630.44
947.285	22864.94
948.008	23335.94
948.73	23175.44
949.452	22697.44
950.174	22655.94
950.896	22890.44
951.618	22916.94
952.339	22519.94
953.061	21984.94
953.782	21769.94
954.504	21934.44
955.225	22081.44
955.946	21669.94
956.667	21118.44
957.388	20930.94
958.109	21201.94
958.83	21560.44
959.551	21278.94
960.271	20800.94
960.992	20539.44
961.712	20565.44
962.432	20568.44
963.152	20439.94
963.872	19938.94
964.592	19788.44
965.312	19900.44
966.032	19899.94
966.751	19643.44
967.471	19327.94
968.19	19091.44
968.91	19163.44
969.629	19249.44
970.348	18924.44
971.067	18438.94
971.786	17981.94
972.505	18121.44
973.223	18214.44
973.942	17986.44
974.66	17398.44
975.379	16970.94
976.097	16988.94
976.815	17132.94
977.533	16952.44
978.251	16460.44
978.969	15929.44
979.687	15897.94
980.404	15968.44
981.122	15831.44
981.839	15518.44
982.557	14967.44
983.274	14786.44
983.991	14846.44
984.708	14867.44
985.425	14612.94
986.142	14140.94
986.859	13770.44
987.575	13764.94
988.292	13803.44
989.008	13465.94
989.724	3.94
990.44	2.44
991.157	-2.06
991.872	3.94
