Data from p_36_flat_Al_Subt2__0__15-10-02-275.txt Node

Date: Thu Jan 18 15:10:02 CET 2024
User: vdhooven
Spectrometer: QEP05097
Trigger mode: 4
Integration Time (sec): 5.000000E-2
Scans to average: 2
Electric dark correction enabled: true
Nonlinearity correction enabled: false
Boxcar width: 0
XAxis mode: Wavelengths
Number of Pixels in Spectrum: 1044
>>>>>Begin Spectral Data<<<<<
197.106	-1
197.905	0
198.704	-3.5
199.503	-3
200.302	571.5
201.101	577.5
201.9	582
202.699	571
203.498	578
204.296	566.5
205.095	566
205.894	600
206.692	586
207.491	489.5
208.289	356.5
209.088	278
209.886	232
210.684	189
211.483	190.5
212.281	169
213.079	178
213.877	163.5
214.675	168.5
215.473	169
216.271	165.5
217.069	167.5
217.866	157
218.664	153
219.462	160.5
220.259	154
221.057	152.5
221.855	146
222.652	152
223.449	155
224.247	157.5
225.044	175.5
225.841	219.5
226.638	282.5
227.436	369.5
228.233	438
229.03	416
229.827	378.5
230.624	365.5
231.42	371
232.217	376
233.014	359
233.811	363.5
234.607	361
235.404	360.5
236.2	356
236.997	360
237.793	345
238.589	350.5
239.386	353.5
240.182	344
240.978	337.5
241.774	334.5
242.57	348
243.366	345
244.162	327
244.958	340.5
245.754	321
246.55	322.5
247.345	321
248.141	314.5
248.937	317.5
249.732	318.5
250.528	319
251.323	307.5
252.118	301
252.914	306.5
253.709	308
254.504	300
255.299	290.5
256.094	299.5
256.889	293.5
257.684	288
258.479	289
259.274	284.5
260.069	293
260.864	288
261.658	286.5
262.453	283
263.247	272.5
264.042	280
264.836	283
265.631	285.5
266.425	273.5
267.219	270.5
268.013	278.5
268.808	276.5
269.602	263
270.396	262
271.19	252
271.984	256
272.777	251.5
273.571	251.5
274.365	246
275.159	259
275.952	256
276.746	247.5
277.539	255.5
278.333	253.5
279.126	243.5
279.919	243.5
280.713	239
281.506	245.5
282.299	248
283.092	241.5
283.885	239.5
284.678	239
285.471	237
286.264	241.5
287.057	238.5
287.849	238.5
288.642	229.5
289.434	234.5
290.227	223
291.02	232.5
291.812	232.5
292.604	230
293.397	231.5
294.189	230.5
294.981	223.5
295.773	223.5
296.565	217
297.357	215.5
298.149	210
298.941	213
299.733	212
300.525	218
301.316	206.5
302.108	206
302.899	204.5
303.691	199
304.482	201.5
305.274	201.5
306.065	203.5
306.856	201.5
307.648	195.5
308.439	199.5
309.23	197
310.021	193.5
310.812	197
311.603	200
312.394	195.5
313.184	193
313.975	185
314.766	187.5
315.556	197.5
316.347	191
317.137	179
317.928	185
318.718	182.5
319.508	188
320.299	193.5
321.089	185.5
321.879	181.5
322.669	183.5
323.459	180
324.249	184.5
325.039	175.5
325.828	186
326.618	179
327.408	175
328.197	178.5
328.987	171.5
329.776	182
330.566	182
331.355	180
332.145	171.5
332.934	184.5
333.723	173.5
334.512	166.5
335.301	175
336.09	170.5
336.879	169.5
337.668	178.5
338.457	169.5
339.245	164
340.034	174
340.823	169.5
341.611	166
342.4	167
343.188	164
343.976	169.5
344.765	167
345.553	168.5
346.341	159
347.129	163
347.917	162
348.705	161
349.493	162
350.281	161
351.069	156
351.856	165
352.644	154
353.432	165
354.219	168.5
355.007	170
355.794	165.5
356.581	172
357.369	163.5
358.156	164.5
358.943	166.5
359.73	173.5
360.517	166.5
361.304	175.5
362.091	176
362.878	178
363.664	178.5
364.451	196
365.238	205
366.024	214
366.811	216.5
367.597	224
368.384	238
369.17	265
369.956	272.5
370.742	289
371.528	297.5
372.314	329.5
373.1	349
373.886	390
374.672	408.5
375.458	436
376.244	466
377.029	506
377.815	543
378.6	582
379.386	622.5
380.171	680
380.956	701.5
381.742	768.5
382.527	824
383.312	878
384.097	916.5
384.882	979
385.667	1044.5
386.452	1103
387.237	1172.5
388.021	1234
388.806	1306.5
389.591	1392.5
390.375	1428.5
391.16	1503.5
391.944	1578
392.728	1673
393.513	1738.5
394.297	1813.5
395.081	1908.5
395.865	1958.5
396.649	2049
397.433	2112.5
398.217	2183
399.001	2276.5
399.784	2355.5
400.568	2431.5
401.352	2515.5
402.135	2612.5
402.919	2707
403.702	2781.5
404.485	2887
405.269	2984
406.052	3040
406.835	3146.5
407.618	3227
408.401	3320.5
409.184	3416
409.967	3521
410.749	3590
411.532	3682.5
412.315	3782.5
413.097	3889
413.88	4007.5
414.662	4049
415.445	4156
416.227	4288
417.009	4393.5
417.792	4511.5
418.574	4632
419.356	4693.5
420.138	4788
420.92	4877
421.701	4982
422.483	5104
423.265	5217
424.047	5364.5
424.828	5482
425.61	5610.5
426.391	5703.5
427.172	5780
427.954	5943
428.735	6032
429.516	6165.5
430.297	6332.5
431.078	6418.5
431.859	6583
432.64	6727.5
433.421	6849
434.202	6933
434.982	7100.5
435.763	7232
436.543	7392
437.324	7536
438.104	7651.5
438.885	7830.5
439.665	8039
440.445	8175.5
441.225	8381.5
442.005	8553
442.785	8655
443.565	8837.5
444.345	9022
445.125	9190.5
445.904	9384.5
446.684	9524
447.464	9716.5
448.243	9884
449.022	10107.5
449.802	10245.5
450.581	10449
451.36	10597
452.139	10778
452.919	10947
453.698	11124.5
454.477	11299.5
455.255	11486
456.034	11715
456.813	11936.5
457.592	12170
458.37	12385
459.149	12572.5
459.927	12825
460.705	13108
461.484	13243
462.262	13479
463.04	13693.5
463.818	13873
464.596	14148.5
465.374	14345
466.152	14556
466.93	14734.5
467.708	15068
468.485	15301.5
469.263	15598
470.04	15865
470.818	16105.5
471.595	16382.5
472.372	16641
473.15	16838.5
473.927	17062
474.704	17306.5
475.481	17638
476.258	17915
477.035	18188
477.812	18454.5
478.588	18670
479.365	18934
480.142	19322.5
480.918	19474.5
481.695	19901
482.471	20135.5
483.247	20394
484.023	20771
484.8	21007
485.576	21371.5
486.352	21655.5
487.128	21878
487.904	22203
488.679	22505.5
489.455	22759
490.231	23225
491.006	23493
491.782	23698
492.557	24175
493.333	24403.5
494.108	24672
494.883	24852.5
495.658	25109
496.433	25461.5
497.208	25679.5
497.983	26020
498.758	26218.5
499.533	26580.5
500.308	27003.5
501.082	27380
501.857	27729.5
502.631	28059
503.406	28432.5
504.18	28709.5
504.954	29070
505.728	29469
506.503	29836.5
507.277	30219.5
508.051	30565.5
508.824	30846
509.598	31269.5
510.372	31673.5
511.146	32097
511.919	32390.5
512.693	32830.5
513.466	33083.5
514.24	33604.5
515.013	34135.5
515.786	34786.5
516.559	35214
517.332	35476
518.105	35797.5
518.878	36213.5
519.651	36593
520.424	37110
521.197	37370
521.969	37539
522.742	37917.5
523.514	38432
524.287	38826
525.059	39065
525.831	39570
526.604	40131.5
527.376	40552
528.148	40940.5
528.92	41486
529.692	41878
530.464	42269
531.235	42794.5
532.007	43358.5
532.779	43659.5
533.55	43729
534.321	43887
535.093	44276.5
535.864	44842
536.635	45574.5
537.406	46039.5
538.178	46587.5
538.949	47031.5
539.719	47310
540.49	47628.5
541.261	47997
542.032	48392
542.802	48801.5
543.573	49289
544.343	49751
545.114	50202
545.884	50397.5
546.654	50708
547.424	51156
548.194	51688.5
548.964	52102.5
549.734	52836
550.504	53272
551.274	53632
552.044	54283.5
552.813	54582.5
553.583	54918.5
554.352	55353.5
555.122	56072.5
555.891	56659
556.66	57088.5
557.429	57524.5
558.198	57951.5
558.967	58274
559.736	58316.5
560.505	58578
561.274	58930
562.043	59499
562.811	59928.5
563.58	60565
564.348	60915
565.117	61135
565.885	61637.5
566.653	62453.5
567.421	63023
568.19	63326
568.958	63586
569.725	64082
570.493	64780
571.261	65434.5
572.029	65903.5
572.796	66365
573.564	66539
574.331	67063
575.099	67436
575.866	67956
576.633	68638.5
577.4	69282.5
578.168	69581.5
578.935	69820
579.701	70002
580.468	70345
581.235	70865
582.002	71291.5
582.768	71560
583.535	71908
584.301	72088.5
585.068	72527
585.834	73123
586.6	73678.5
587.366	74362.5
588.132	74836
588.898	75372.5
589.664	75525
590.43	75921
591.196	76219.5
591.961	76631.5
592.727	77054
593.492	77354.5
594.258	77801.5
595.023	78128
595.788	78789
596.554	78978
597.319	79480.5
598.084	79539.5
598.849	80214.5
599.614	80792
600.378	81307
601.143	82022.5
601.908	82479.5
602.672	82630
603.437	82562.5
604.201	83070.5
604.965	84044
605.73	85398.5
606.494	86155.5
607.258	86666
608.022	86802
608.786	86877
609.55	86858
610.313	87431.5
611.077	87287
611.841	87944
612.604	88215
613.367	89569.5
614.131	90110.5
614.894	90624
615.657	90602.5
616.42	90958.5
617.183	91155.5
617.946	91638
618.709	92004
619.472	92989
620.235	93546
620.997	93803
621.76	93960.5
622.522	94930
623.285	94837.5
624.047	94865.5
624.809	95060
625.571	95965.5
626.333	96003.5
627.095	96314.5
627.857	96157.5
628.619	96911.5
629.381	97020
630.142	97571
630.904	97514
631.665	98277
632.427	98640.5
633.188	99652.5
633.949	99475
634.711	100360.5
635.472	100888.5
636.233	102110
636.994	102593.5
637.754	103100.5
638.515	103111.5
639.276	103804.5
640.036	104877
640.797	105822
641.557	106421.5
642.318	106188.5
643.078	106556
643.838	106115
644.598	106584.5
645.358	106752.5
646.118	108095
646.878	108214
647.638	109151.5
648.397	109248.5
649.157	109166
649.916	109265.5
650.676	109258.5
651.435	109916.5
652.194	110231.5
652.954	111400.5
653.713	111286.5
654.472	111745
655.231	111286
655.99	111055.5
656.748	111257
657.507	111790
658.266	112832.5
659.024	112854.5
659.783	113246.5
660.541	112634
661.299	113655
662.057	113695
662.815	114462.5
663.573	114546.5
664.331	113935
665.089	115170.5
665.847	114778
666.605	115294.5
667.362	115488.5
668.12	117001.5
668.877	117375.5
669.635	116752
670.392	117680
671.149	117329
671.906	117759
672.663	117238
673.42	118072.5
674.177	118598
674.934	118012.5
675.69	118926.5
676.447	118703
677.203	119550.5
677.96	119230.5
678.716	119207.5
679.472	120347
680.229	119849
680.985	120501.5
681.741	120168.5
682.497	120137.5
683.252	119667
684.008	118775
684.764	119631.5
685.519	119415.5
686.275	120599.5
687.03	121015.5
687.786	120682
688.541	121875
689.296	121070.5
690.051	121762
690.806	121715.5
691.561	120720.5
692.316	121277
693.07	120338.5
693.825	120498
694.58	120799
695.334	119743
696.088	120569
696.843	121260
697.597	122400.5
698.351	122819
699.105	121687
699.859	121978
700.613	121522
701.367	122257.5
702.12	123568
702.874	122742.5
703.627	123172.5
704.381	123467.5
705.134	123051.5
705.887	123865
706.641	122608.5
707.394	123194
708.147	123554.5
708.9	122582
709.652	124199.5
710.405	123324
711.158	122846.5
711.91	123224
712.663	121434.5
713.415	121263.5
714.168	121477.5
714.92	120575
715.672	122007.5
716.424	121397.5
717.176	120741.5
717.928	121539
718.68	121025
719.431	121515
720.183	121647
720.934	119697.5
721.686	120474.5
722.437	120495
723.188	119226
723.94	120159
724.691	119360.5
725.442	118471.5
726.193	119335
726.943	118546.5
727.694	119402.5
728.445	120600.5
729.195	119318.5
729.946	119765
730.696	119928
731.446	118084
732.197	119445
732.947	119732.5
733.697	118326
734.447	119424
735.197	118904.5
735.946	118006.5
736.696	118958
737.446	117635.5
738.195	116039.5
738.945	117200
739.694	115968.5
740.443	115635.5
741.192	117063
741.941	116807
742.69	117825
743.439	119482.5
744.188	117834.5
744.937	117614.5
745.685	117545.5
746.434	116152
747.182	117760
747.931	119169.5
748.679	116978.5
749.427	116632
750.175	116535.5
750.923	114740.5
751.671	115513.5
752.419	116033
753.167	114293
753.914	116025
754.662	117378.5
755.409	115844
756.157	116667.5
756.904	116994
757.651	115086
758.398	116109
759.145	117169
759.892	115236
760.639	114946
761.386	115547.5
762.132	113452.5
762.879	113345
763.625	113756
764.372	112308
765.118	112422.5
765.864	114238.5
766.61	112764.5
767.356	111929
768.102	113451.5
768.848	112967
769.594	112249
770.339	113118
771.085	111980.5
771.83	110588
772.576	111523
773.321	111075.5
774.066	108691.5
774.811	108669
775.556	109156
776.301	107085.5
777.046	107263
777.791	107502
778.535	105557.5
779.28	105647.5
780.025	107363
780.769	106439
781.513	105266
782.257	106372
783.001	105593.5
783.746	105106
784.489	106404
785.233	105728.5
785.977	102836.5
786.721	103160.5
787.464	104313
788.208	102942.5
788.951	102797
789.694	103786
790.438	102127
791.181	100053
791.924	100324.5
792.667	99974.5
793.409	98254
794.152	98241.5
794.895	99038.5
795.637	97036.5
796.38	95945
797.122	97248.5
797.864	95842
798.607	94666
799.349	96532.5
800.091	97126.5
800.832	95002
801.574	94523
802.316	95509.5
803.058	94547
803.799	93737.5
804.541	95301
805.282	95430
806.023	93099
806.764	93393
807.505	94582.5
808.246	93290
808.987	92435.5
809.728	93922.5
810.469	93908
811.209	91867
811.95	91426
812.69	91628
813.431	90568.5
814.171	89684
814.911	90222.5
815.651	90065
816.391	88228
817.131	88071.5
817.87	89690.5
818.61	89194.5
819.35	87926
820.089	88476
820.829	88577.5
821.568	86560.5
822.307	86298.5
823.046	88158.5
823.785	87549.5
824.524	85633
825.263	85392.5
826.002	86003
826.74	85080.5
827.479	83856
828.217	84725
828.956	84896.5
829.694	82859.5
830.432	81972.5
831.17	83787.5
831.908	84842
832.646	83694.5
833.384	83642.5
834.121	83608.5
834.859	80855
835.596	78241.5
836.334	79137.5
837.071	80738.5
837.808	80045
838.545	79023
839.282	79511.5
840.019	79288.5
840.756	77931.5
841.493	78376.5
842.23	80071.5
842.966	79774
843.703	78225
844.439	78173.5
845.175	79283
845.911	79185
846.647	77940.5
847.383	78650.5
848.119	78963
848.855	76686.5
849.591	74320.5
850.326	75219.5
851.062	77166.5
851.797	77049
852.532	76399.5
853.268	76301.5
854.003	76128
854.738	74480.5
855.473	74061.5
856.207	75764
856.942	77120.5
857.677	76169
858.411	73957
859.146	73564.5
859.88	73999
860.614	73486.5
861.348	73563
862.083	75021
862.816	75800
863.55	73936
864.284	71758
865.018	71924
865.751	72461.5
866.485	72201.5
867.218	72177.5
867.951	72482.5
868.685	71957.5
869.418	69859
870.151	68569.5
870.884	69684.5
871.616	70835
872.349	69779.5
873.082	68662
873.814	69194
874.546	69817.5
875.279	68193
876.011	66649.5
876.743	66993.5
877.475	68413
878.207	68454
878.939	67191.5
879.671	66459.5
880.402	66745.5
881.134	66182.5
881.865	64959
882.596	65338.5
883.328	67056.5
884.059	67647.5
884.79	65477
885.521	63628.5
886.252	63797
886.982	64393
887.713	63818.5
888.443	63109
889.174	64336
889.904	64956.5
890.634	63696.5
891.365	62022.5
892.095	62245
892.825	63743
893.554	64166
894.284	62840
895.014	61866
895.743	61510.5
896.473	60789.5
897.202	59626.5
897.931	58801.5
898.661	59579
899.39	60727.5
900.119	60428
900.847	59500.5
901.576	59355.5
902.305	59928.5
903.033	59422
903.762	58365.5
904.49	58008.5
905.218	58988
905.947	59160.5
906.675	57766
907.403	55969.5
908.13	55333
908.858	55861
909.586	56049
910.313	55456.5
911.041	55223
911.768	55549.5
912.496	55574
913.223	54217.5
913.95	53149
914.677	53047.5
915.404	53690.5
916.13	53801
916.857	52973.5
917.584	52453.5
918.31	52366
919.036	52239
919.763	51488.5
920.489	50738
921.215	51167.5
921.941	52120.5
922.667	52063.5
923.392	50521
924.118	49482.5
924.844	49553.5
925.569	50435.5
926.294	50198.5
927.02	49693
927.745	49244
928.47	49445.5
929.195	49346.5
929.92	48315.5
930.644	46873.5
931.369	46428.5
932.094	47387.5
932.818	47226.5
933.542	46450
934.267	45383
934.991	45416.5
935.715	45633.5
936.439	45012
937.163	44191.5
937.886	43823.5
938.61	44172
939.333	44929.5
940.057	44437.5
940.78	43386.5
941.503	42947
942.227	43447
942.95	44016.5
943.672	43351.5
944.395	42097.5
945.118	41657.5
945.841	41969.5
946.563	41974
947.285	41480
948.008	41148
948.73	41191
949.452	41748
950.174	42012.5
950.896	40944
951.618	39570
952.339	39190.5
953.061	39526.5
953.782	39674
954.504	38763
955.225	37646.5
955.946	37374
956.667	37510
957.388	37521.5
958.109	37080
958.83	36530
959.551	36383
960.271	36579
960.992	36738
961.712	36237
962.432	35382
963.152	35343
963.872	35651.5
964.592	35378.5
965.312	34515.5
966.032	33632.5
966.751	33316.5
967.471	33454
968.19	33678
968.91	33139
969.629	32265.5
970.348	31826.5
971.067	31594
971.786	31413.5
972.505	31004
973.223	30151
973.942	29522
974.66	29336.5
975.379	29375.5
976.097	29022
976.815	28341.5
977.533	27592.5
978.251	27410.5
978.969	27251
979.687	26917.5
980.404	26120
981.122	25318.5
981.839	24838
982.557	24963
983.274	24690
983.991	23952
984.708	23132
985.425	22847
986.142	22871.5
986.859	22695.5
987.575	22191
988.292	21449
989.008	20794.5
989.724	6.5
990.44	-1
991.157	0
991.872	2
