Data from s_32_flat_Al_Subt2__0__14-55-26-271.txt Node

Date: Thu Jan 18 14:55:26 CET 2024
User: vdhooven
Spectrometer: QEP05097
Trigger mode: 4
Integration Time (sec): 5.000000E-2
Scans to average: 2
Electric dark correction enabled: true
Nonlinearity correction enabled: false
Boxcar width: 0
XAxis mode: Wavelengths
Number of Pixels in Spectrum: 1044
>>>>>Begin Spectral Data<<<<<
197.106	-2.12
197.905	-4.12
198.704	-1.62
199.503	-3.12
200.302	452.88
201.101	449.38
201.9	445.88
202.699	451.88
203.498	446.38
204.296	445.38
205.095	431.88
205.894	449.38
206.692	445.88
207.491	378.88
208.289	312.38
209.088	254.88
209.886	220.88
210.684	202.38
211.483	201.38
212.281	198.38
213.079	194.88
213.877	194.88
214.675	199.88
215.473	213.38
216.271	189.88
217.069	197.88
217.866	195.88
218.664	183.88
219.462	191.88
220.259	187.88
221.057	171.38
221.855	175.88
222.652	178.88
223.449	173.88
224.247	178.38
225.044	184.88
225.841	216.38
226.638	261.38
227.436	318.38
228.233	351.38
229.03	332.88
229.827	312.88
230.624	290.38
231.42	304.88
232.217	292.88
233.014	300.88
233.811	286.88
234.607	283.88
235.404	283.38
236.2	288.88
236.997	267.88
237.793	274.88
238.589	270.88
239.386	277.88
240.182	271.88
240.978	273.88
241.774	275.88
242.57	271.38
243.366	264.38
244.162	269.88
244.958	274.88
245.754	265.38
246.55	263.38
247.345	269.38
248.141	268.38
248.937	261.38
249.732	265.38
250.528	268.38
251.323	258.88
252.118	257.88
252.914	257.88
253.709	262.38
254.504	262.88
255.299	258.38
256.094	260.88
256.889	267.88
257.684	254.88
258.479	253.38
259.274	254.38
260.069	248.38
260.864	255.88
261.658	248.88
262.453	247.88
263.247	243.38
264.042	238.88
264.836	253.38
265.631	237.88
266.425	236.38
267.219	236.38
268.013	244.38
268.808	244.88
269.602	241.38
270.396	235.88
271.19	225.38
271.984	233.38
272.777	234.38
273.571	226.38
274.365	226.88
275.159	234.88
275.952	236.38
276.746	224.38
277.539	230.88
278.333	225.88
279.126	223.88
279.919	220.38
280.713	221.88
281.506	213.88
282.299	222.38
283.092	227.38
283.885	215.88
284.678	216.88
285.471	220.38
286.264	214.88
287.057	226.88
287.849	208.88
288.642	219.38
289.434	212.38
290.227	205.38
291.02	212.88
291.812	214.38
292.604	209.38
293.397	210.88
294.189	209.38
294.981	195.38
295.773	213.88
296.565	198.38
297.357	209.38
298.149	197.38
298.941	201.88
299.733	209.88
300.525	191.38
301.316	191.88
302.108	189.88
302.899	188.88
303.691	199.38
304.482	189.88
305.274	194.88
306.065	182.38
306.856	180.88
307.648	190.38
308.439	177.88
309.23	173.38
310.021	179.88
310.812	187.88
311.603	183.38
312.394	182.88
313.184	179.88
313.975	184.38
314.766	184.88
315.556	175.38
316.347	176.38
317.137	176.88
317.928	175.88
318.718	170.38
319.508	175.88
320.299	174.88
321.089	171.88
321.879	170.88
322.669	174.38
323.459	172.38
324.249	170.38
325.039	161.88
325.828	172.38
326.618	169.88
327.408	171.38
328.197	162.88
328.987	170.88
329.776	165.38
330.566	163.88
331.355	168.38
332.145	163.38
332.934	171.88
333.723	160.38
334.512	163.38
335.301	163.88
336.09	162.88
336.879	156.88
337.668	163.88
338.457	166.38
339.245	170.38
340.034	170.38
340.823	171.88
341.611	162.38
342.4	168.38
343.188	163.88
343.976	174.88
344.765	161.88
345.553	165.38
346.341	156.38
347.129	175.38
347.917	163.88
348.705	168.88
349.493	173.38
350.281	164.38
351.069	167.38
351.856	176.88
352.644	160.88
353.432	176.38
354.219	175.88
355.007	167.88
355.794	173.38
356.581	172.38
357.369	166.38
358.156	176.38
358.943	174.88
359.73	177.88
360.517	181.88
361.304	187.88
362.091	189.88
362.878	200.38
363.664	202.38
364.451	207.38
365.238	222.88
366.024	233.38
366.811	242.38
367.597	255.88
368.384	283.38
369.17	287.38
369.956	305.38
370.742	333.38
371.528	353.88
372.314	380.88
373.1	405.38
373.886	444.38
374.672	471.38
375.458	514.88
376.244	561.88
377.029	589.38
377.815	631.38
378.6	678.38
379.386	733.88
380.171	787.38
380.956	850.38
381.742	903.38
382.527	979.38
383.312	1040.88
384.097	1095.88
384.882	1175.38
385.667	1242.38
386.452	1320.88
387.237	1400.38
388.021	1491.38
388.806	1552.88
389.591	1627.88
390.375	1728.38
391.16	1825.38
391.944	1888.38
392.728	2012.38
393.513	2087.88
394.297	2167.88
395.081	2252.88
395.865	2351.38
396.649	2448.38
397.433	2543.38
398.217	2642.38
399.001	2759.88
399.784	2861.38
400.568	2966.88
401.352	3068.88
402.135	3168.88
402.919	3285.88
403.702	3379.38
404.485	3475.38
405.269	3574.38
406.052	3687.88
406.835	3836.88
407.618	3915.88
408.401	4040.38
409.184	4163.38
409.967	4284.88
410.749	4411.38
411.532	4515.38
412.315	4606.38
413.097	4738.88
413.88	4876.38
414.662	4999.38
415.445	5138.88
416.227	5254.38
417.009	5390.38
417.792	5486.88
418.574	5638.88
419.356	5744.38
420.138	5875.38
420.92	6002.88
421.701	6181.88
422.483	6345.88
423.265	6473.38
424.047	6641.38
424.828	6800.38
425.61	6925.38
426.391	7050.38
427.172	7205.38
427.954	7344.38
428.735	7500.38
429.516	7652.88
430.297	7842.38
431.078	8009.38
431.859	8199.88
432.64	8309.38
433.421	8527.38
434.202	8703.88
434.982	8864.88
435.763	8986.88
436.543	9224.88
437.324	9397.38
438.104	9570.88
438.885	9784.88
439.665	9950.38
440.445	10206.38
441.225	10431.88
442.005	10615.88
442.785	10800.88
443.565	11010.88
444.345	11245.38
445.125	11463.38
445.904	11705.88
446.684	11887.88
447.464	12159.38
448.243	12351.88
449.022	12648.88
449.802	12848.88
450.581	13089.38
451.36	13292.38
452.139	13594.88
452.919	13864.38
453.698	14076.88
454.477	14333.88
455.255	14567.38
456.034	14818.38
456.813	15082.38
457.592	15423.88
458.37	15712.88
459.149	16009.38
459.927	16305.88
460.705	16629.38
461.484	16863.88
462.262	17137.38
463.04	17384.88
463.818	17648.88
464.596	17995.38
465.374	18263.88
466.152	18512.38
466.93	18794.88
467.708	19201.88
468.485	19544.38
469.263	19910.88
470.04	20174.38
470.818	20579.38
471.595	20839.38
472.372	21178.88
473.15	21560.38
473.927	21835.38
474.704	22136.88
475.481	22495.38
476.258	22874.88
477.035	23175.38
477.812	23565.38
478.588	23899.38
479.365	24320.88
480.142	24716.38
480.918	25078.88
481.695	25535.88
482.471	25873.88
483.247	26319.88
484.023	26606.88
484.8	27027.38
485.576	27312.38
486.352	27715.88
487.128	28168.88
487.904	28671.88
488.679	29022.88
489.455	29573.38
490.231	29957.38
491.006	30457.88
491.782	30840.38
492.557	31166.38
493.333	31388.38
494.108	31806.38
494.883	32165.38
495.658	32544.88
496.433	32944.88
497.208	33278.88
497.983	33621.88
498.758	34179.88
499.533	34640.88
500.308	35088.38
501.082	35608.88
501.857	36034.38
502.631	36603.88
503.406	37155.88
504.18	37635.88
504.954	38138.88
505.728	38563.38
506.503	39039.88
507.277	39582.38
508.051	39947.38
508.824	40418.88
509.598	40944.88
510.372	41500.38
511.146	41979.88
511.919	42580.38
512.693	43055.38
513.466	43511.88
514.24	44076.88
515.013	44683.38
515.786	45393.38
516.559	46031.38
517.332	46482.38
518.105	47153.88
518.878	47483.38
519.651	47876.88
520.424	48475.38
521.197	48992.88
521.969	49493.88
522.742	50097.38
523.514	50676.38
524.287	51037.88
525.059	51675.88
525.831	52292.38
526.604	52913.88
527.376	53387.88
528.148	53994.38
528.92	54510.88
529.692	55043.38
530.464	55613.38
531.235	56077.38
532.007	56617.88
532.779	57068.38
533.55	57601.38
534.321	58313.88
535.093	59091.38
535.864	59515.38
536.635	60165.88
537.406	60832.88
538.178	61392.88
538.949	62065.88
539.719	62409.88
540.49	63089.38
541.261	63819.88
542.032	64445.38
542.802	65040.88
543.573	65730.88
544.343	66219.88
545.114	66700.88
545.884	66953.88
546.654	67622.88
547.424	68134.88
548.194	68568.38
548.964	69318.88
549.734	69751.88
550.504	70701.38
551.274	71305.38
552.044	72018.88
552.813	72612.38
553.583	73198.38
554.352	73799.88
555.122	74618.88
555.891	75705.38
556.66	76337.88
557.429	76898.38
558.198	77582.88
558.967	77943.88
559.736	78297.88
560.505	78891.88
561.274	79436.88
562.043	79970.38
562.811	80388.88
563.58	81123.38
564.348	81614.38
565.117	82313.88
565.885	82845.38
566.653	83605.38
567.421	84489.38
568.19	85418.88
568.958	85944.88
569.725	86468.88
570.493	87054.38
571.261	87878.88
572.029	88734.38
572.796	89520.88
573.564	90440.88
574.331	90949.88
575.099	91362.88
575.866	91854.88
576.633	92718.88
577.4	93054.38
578.168	93536.38
578.935	93925.88
579.701	94693.88
580.468	95396.38
581.235	95912.88
582.002	96423.88
582.768	97202.88
583.535	98269.38
584.301	98779.88
585.068	99022.88
585.834	99217.38
586.6	99683.88
587.366	100757.38
588.132	101429.38
588.898	101875.88
589.664	102290.88
590.43	102562.38
591.196	103153.38
591.961	103619.38
592.727	104081.88
593.492	104968.38
594.258	105119.38
595.023	105864.38
595.788	106742.88
596.554	107568.88
597.319	108081.38
598.084	108847.38
598.849	109862.38
599.614	110501.38
600.378	111022.38
601.143	112038.38
601.908	113212.38
602.672	114230.38
603.437	114936.38
604.201	115226.38
604.965	116201.88
605.73	116518.88
606.494	116870.38
607.258	117196.38
608.022	117975.88
608.786	118286.38
609.55	119178.88
610.313	119830.38
611.077	119902.88
611.841	119793.38
612.604	121218.38
613.367	121957.38
614.131	122724.38
614.894	123425.38
615.657	124384.38
616.42	124967.88
617.183	125760.38
617.946	126078.88
618.709	127683.88
619.472	128124.88
620.235	128860.38
620.997	129578.38
621.76	130565.38
622.522	130799.38
623.285	131548.88
624.047	131407.88
624.809	132165.88
625.571	132986.38
626.333	133781.38
627.095	133742.88
627.857	134565.38
628.619	134597.38
629.381	134607.88
630.142	134793.38
630.904	135629.88
631.665	135884.38
632.427	137038.38
633.188	137955.38
633.949	138991.38
634.711	139536.88
635.472	140110.38
636.233	140618.38
636.994	140968.38
637.754	142000.38
638.515	142825.88
639.276	143686.38
640.036	143980.38
640.797	145330.38
641.557	145425.88
642.318	146672.38
643.078	147610.38
643.838	148489.88
644.598	148895.38
645.358	148711.38
646.118	149523.38
646.878	149702.88
647.638	150741.38
648.397	151005.88
649.157	152224.88
649.916	151905.88
650.676	152317.88
651.435	151924.88
652.194	152954.88
652.954	153203.88
653.713	153720.38
654.472	154958.88
655.231	154871.38
655.99	156177.88
656.748	156119.88
657.507	157262.88
658.266	157204.88
659.024	157961.38
659.783	158596.88
660.541	158231.38
661.299	158903.88
662.057	158881.38
662.815	160036.38
663.573	159851.38
664.331	160745.88
665.089	160919.88
665.847	160476.38
666.605	160993.38
667.362	160861.88
668.12	162964.38
668.877	161870.38
669.635	161910.88
670.392	162242.88
671.149	162522.38
671.906	163769.88
672.663	163549.38
673.42	164908.88
674.177	165283.88
674.934	165707.38
675.69	166103.88
676.447	165434.38
677.203	167429.38
677.96	167111.38
678.716	167746.38
679.472	167548.88
680.229	167609.38
680.985	169369.38
681.741	168635.88
682.497	169690.38
683.252	169533.88
684.008	169698.38
684.764	170318.38
685.519	170133.88
686.275	171510.38
687.03	170385.88
687.786	170242.88
688.541	171524.88
689.296	169857.38
690.051	170796.38
690.806	169553.38
691.561	170059.88
692.316	171275.88
693.07	169735.38
693.825	171430.88
694.58	171181.38
695.334	169744.88
696.088	171552.88
696.843	170771.88
697.597	172402.88
698.351	173016.88
699.105	171859.38
699.859	173442.38
700.613	173055.38
701.367	174392.88
702.12	174960.88
702.874	173314.88
703.627	174763.38
704.381	173022.88
705.134	172392.38
705.887	174142.38
706.641	173941.88
707.394	176003.38
708.147	176607.88
708.9	175129.88
709.652	177128.88
710.405	175877.88
711.158	174857.88
711.91	175902.88
712.663	174431.88
713.415	175858.88
714.168	175201.88
714.92	173718.38
715.672	175632.38
716.424	174611.88
717.176	172876.88
717.928	174101.38
718.68	173046.38
719.431	173542.38
720.183	174767.38
720.934	171702.88
721.686	172635.38
722.437	173260.38
723.188	171987.38
723.94	173652.38
724.691	172431.88
725.442	171305.88
726.193	174532.38
726.943	172635.38
727.694	171663.38
728.445	172980.38
729.195	171282.88
729.946	171267.38
730.696	172111.38
731.446	169976.38
732.197	171234.38
732.947	171099.88
733.697	169020.38
734.447	170568.88
735.197	170475.38
735.946	168738.88
736.696	171014.38
737.446	170315.38
738.195	168615.38
738.945	170118.38
739.694	168855.88
740.443	168544.38
741.192	169932.38
741.941	168067.88
742.69	167478.38
743.439	170363.88
744.188	168729.88
744.937	168834.38
745.685	170588.38
746.434	168372.38
747.182	169333.88
747.931	171000.88
748.679	168278.88
749.427	168144.38
750.175	170068.38
750.923	168233.88
751.671	168201.88
752.419	169379.38
753.167	167125.88
753.914	167179.38
754.662	169165.38
755.409	167360.88
756.157	167030.38
756.904	168133.38
757.651	166605.38
758.398	166131.88
759.145	167768.88
759.892	166034.88
760.639	165167.38
761.386	168403.38
762.132	166196.38
762.879	163583.88
763.625	165791.88
764.372	165274.88
765.118	163186.88
765.864	165490.38
766.61	164194.38
767.356	160405.88
768.102	161940.38
768.848	162953.38
769.594	160307.88
770.339	162457.38
771.085	163056.38
771.83	160247.38
772.576	160640.88
773.321	162077.88
774.066	159748.38
774.811	158469.38
775.556	159096.88
776.301	156641.38
777.046	156261.38
777.791	159351.38
778.535	158554.88
779.28	155894.88
780.025	157667.88
780.769	157880.88
781.513	154246.88
782.257	154468.88
783.001	155520.38
783.746	153137.88
784.489	152290.38
785.233	154109.38
785.977	151785.38
786.721	149828.88
787.464	151619.88
788.208	150945.38
788.951	147549.38
789.694	148014.38
790.438	149320.38
791.181	146973.88
791.924	146507.38
792.667	148378.38
793.409	146774.88
794.152	144490.38
794.895	145370.38
795.637	144419.38
796.38	141664.38
797.122	142591.38
797.864	143628.38
798.607	140418.38
799.349	139365.88
800.091	141694.38
800.832	140957.38
801.574	138698.88
802.316	139819.88
803.058	140403.38
803.799	137390.38
804.541	136615.88
805.282	139546.88
806.023	138387.88
806.764	135294.88
807.505	136705.88
808.246	138383.88
808.987	136153.88
809.728	134529.38
810.469	135969.38
811.209	135042.88
811.95	132819.88
812.69	133666.88
813.431	134454.38
814.171	132788.38
814.911	132096.38
815.651	133770.38
816.391	133083.88
817.131	130448.38
817.87	130962.88
818.61	132289.88
819.35	130746.38
820.089	128893.38
820.829	129301.88
821.568	129790.88
822.307	127781.88
823.046	127832.88
823.785	129809.38
824.524	127480.38
825.263	124847.38
826.002	126016.88
826.74	127660.88
827.479	125651.38
828.217	123596.38
828.956	124077.38
829.694	123385.38
830.432	121005.88
831.17	121046.88
831.908	123605.38
832.646	122787.38
833.384	119176.38
834.121	119134.38
834.859	120830.38
835.596	119574.38
836.334	117666.88
837.071	119128.38
837.808	120503.38
838.545	117481.38
839.282	115395.88
840.019	117135.38
840.756	117902.88
841.493	115868.88
842.23	115552.88
842.966	117539.38
843.703	116915.88
844.439	114118.38
845.175	114195.38
845.911	116448.88
846.647	116076.88
847.383	113753.38
848.119	112640.88
848.855	113293.88
849.591	112543.88
850.326	110994.88
851.062	112588.88
851.797	114547.88
852.532	112918.38
853.268	110240.88
854.003	110345.38
854.738	111415.38
855.473	110681.38
856.207	109692.88
856.942	110812.88
857.677	111518.38
858.411	109000.88
859.146	106067.38
859.88	106634.38
860.614	108038.88
861.348	107182.38
862.083	106380.88
862.816	106835.38
863.55	106909.88
864.284	104971.38
865.018	103117.88
865.751	104379.38
866.485	106596.38
867.218	105485.38
867.951	103578.88
868.685	103558.38
869.418	104208.38
870.151	102931.88
870.884	100619.38
871.616	101470.88
872.349	103489.88
873.082	102367.38
873.814	99247.88
874.546	98610.88
875.279	99516.38
876.011	99362.38
876.743	97891.38
877.475	98001.38
878.207	100075.88
878.939	100412.38
879.671	98016.88
880.402	96007.88
881.134	96664.38
881.865	97930.88
882.596	96270.38
883.328	94848.38
884.059	95965.38
884.79	96998.88
885.521	95290.38
886.252	92692.38
886.982	92727.88
887.713	94756.88
888.443	95341.88
889.174	93202.88
889.904	91183.38
890.634	91636.88
891.365	91230.38
892.095	89235.88
892.825	88546.88
893.554	90038.38
894.284	90749.88
895.014	89584.38
895.743	87445.38
896.473	86801.38
897.202	88265.38
897.931	87795.38
898.661	85679.88
899.39	85346.38
900.119	86712.38
900.847	87023.38
901.576	84997.38
902.305	83115.38
903.033	83411.88
903.762	84656.38
904.49	84409.88
905.218	83114.88
905.947	83267.88
906.675	84397.38
907.403	84103.88
908.13	82147.88
908.858	80389.38
909.586	80409.88
910.313	81149.88
911.041	81061.88
911.768	79780.88
912.496	78798.88
913.223	79641.38
913.95	79376.88
914.677	77613.88
915.404	76564.88
916.13	77460.88
916.857	78430.88
917.584	78122.38
918.31	76215.88
919.036	75444.88
919.763	76133.38
920.489	76610.38
921.215	75648.38
921.941	74254.38
922.667	73980.38
923.392	74227.88
924.118	73870.38
924.844	72012.38
925.569	70414.38
926.294	70542.38
927.02	71581.38
927.745	71094.88
928.47	69329.88
929.195	68359.88
929.92	68807.38
930.644	68907.38
931.369	67575.38
932.094	66062.38
932.818	65435.88
933.542	66038.38
934.267	66304.88
934.991	65086.88
935.715	63603.88
936.439	63374.38
937.163	64356.88
937.886	64472.88
938.61	63050.88
939.333	61818.38
940.057	62208.38
940.78	62951.38
941.503	62591.88
942.227	61191.38
942.95	60743.88
943.672	61575.38
944.395	62418.38
945.118	61852.88
945.841	60301.38
946.563	58965.38
947.285	59273.38
948.008	59790.38
948.73	58842.38
949.452	57200.88
950.174	56559.88
950.896	56943.88
951.618	57031.38
952.339	56236.38
953.061	54802.38
953.782	54200.88
954.504	54526.38
955.225	54772.38
955.946	53970.38
956.667	52547.88
957.388	51956.38
958.109	52470.88
958.83	52591.38
959.551	52058.88
960.271	51160.88
960.992	50421.38
961.712	50627.38
962.432	51018.88
963.152	50384.88
963.872	49187.88
964.592	48082.88
965.312	48053.38
966.032	48275.88
966.751	47835.38
967.471	46787.38
968.19	46048.38
968.91	46027.88
969.629	46160.38
970.348	45799.38
971.067	44553.38
971.786	43165.38
972.505	43055.38
973.223	43257.38
973.942	43037.38
974.66	42068.38
975.379	40938.88
976.097	40225.88
976.815	40479.88
977.533	40544.38
978.251	39722.38
978.969	38414.38
979.687	37451.88
980.404	37341.88
981.122	37298.38
981.839	36828.88
982.557	35840.38
983.274	34753.88
983.991	34458.38
984.708	34494.38
985.425	34251.88
986.142	33245.38
986.859	32208.88
987.575	31498.88
988.292	31376.88
989.008	31107.88
989.724	6.88
990.44	1.38
991.157	0.38
991.872	2.38
